n_offset_hours,model,best_epoch,best_val_macro_auroc,train_examples,val_examples,test_examples,train_patients,val_patients,test_patients,split,macro_auroc,macro_auprc,micro_auroc,micro_auprc,pneumonia_auroc,pneumonia_auprc,pneumonia_prevalence,consolidation_auroc,consolidation_auprc,consolidation_prevalence,lung_opacity_auroc,lung_opacity_auprc,lung_opacity_prevalence,pneumothorax_auroc,pneumothorax_auprc,pneumothorax_prevalence,pleural_effusion_auroc,pleural_effusion_auprc,pleural_effusion_prevalence,pulmonary_edema_auroc,pulmonary_edema_auprc,pulmonary_edema_prevalence
0,single_mlp,11,0.6814072409705925,57414,12437,12516,26719,5719,5730,val,0.6814072409705925,0.18316222962985265,0.7079237744054072,0.19849164561021618,0.6011939324158405,0.08163819657114384,0.05821339551338747,0.6600163109461605,0.057036036998685674,0.0340918227868457,0.6446312699621415,0.29357220614640567,0.20085229556967113,0.6818159575061875,0.03944168632111977,0.017206721878266464,0.7533710738237656,0.3551587609170971,0.1620969687223607,0.7474149011694591,0.2721264908246638,0.12567339390528262
0,single_mlp,11,0.6814072409705925,57414,12437,12516,26719,5719,5730,test,0.6720750342862473,0.17953728408831968,0.7072655540631093,0.19365223606054385,0.5986081386687224,0.08254004921997293,0.06144135506551614,0.6696715838103319,0.0570453476283747,0.030600830936401407,0.6402193942787637,0.2699894386883205,0.1905560882070949,0.6082275744043968,0.0350221243377829,0.01693831895174177,0.7547449884000592,0.35727591630326444,0.16714605305209332,0.7609785261552099,0.2753508283522025,0.12024608501118568
0,sequence_attention,7,0.7054674431148934,51101,11065,11161,26719,5719,5730,val,0.7054674431148934,0.18702507111655717,0.7274222399035144,0.19620147126954615,0.6049380130989488,0.07747546109312375,0.057749661093538185,0.6933819092390578,0.0675226815934485,0.03271577044735653,0.652098241588911,0.29327324351178063,0.19692724807953005,0.76030501691736,0.051329406779092784,0.01780388612742883,0.7603942467392897,0.36323352612024823,0.15906009941256213,0.7616872311057931,0.26931610760164904,0.12001807501129688
0,sequence_attention,7,0.7054674431148934,51101,11065,11161,26719,5719,5730,test,0.7018363444240062,0.186337796734402,0.7271284869154001,0.19450451239200572,0.6169686412796197,0.08781675273394546,0.061553624227219786,0.6832155887471858,0.05882729394096898,0.03073201326046053,0.651979630452751,0.2852195807504704,0.1906639190036735,0.728900822327919,0.04759408349144226,0.016844368784159125,0.7593987262858729,0.3598329533971409,0.16261983693217455,0.7705546574506884,0.27873611609244414,0.11477466176865872
0,latest_mlp,5,0.6842717207209502,51101,11065,11161,26719,5719,5730,val,0.6842717207209502,0.18250824157658485,0.7096027071736034,0.20642721743922748,0.5959290710265386,0.07508378287408743,0.057749661093538185,0.6695068713630661,0.06017147580149888,0.03271577044735653,0.6491683655609368,0.2897716136532634,0.19692724807953005,0.6902808319118765,0.041998816045750426,0.01780388612742883,0.7514816081285721,0.3579611003249141,0.15906009941256213,0.7492635763347114,0.2700626607599948,0.12001807501129688
0,latest_mlp,5,0.6842717207209502,51101,11065,11161,26719,5719,5730,test,0.6769253782466351,0.17593528603821096,0.7055093590590023,0.19693557144754825,0.6111007807785772,0.08630126329494128,0.061553624227219786,0.6756776714330451,0.05585084402237227,0.03073201326046053,0.6398997847491528,0.27447770848407105,0.1906639190036735,0.6326115261638333,0.031237585653000492,0.016844368784159125,0.7447900104875378,0.3438741793407605,0.16261983693217455,0.7574724958676642,0.2638701354341202,0.11477466176865872
2,single_mlp,9,0.6539086097464187,25395,5536,5496,14217,3056,3039,val,0.6539086097464187,0.1854522469605557,0.6830075411848455,0.20710827823772324,0.6168699881068733,0.0776750217503119,0.05888728323699422,0.6389927916373181,0.07651806616799224,0.048952312138728325,0.6349361536581384,0.29909181466699436,0.21658236994219654,0.6303778826737322,0.045954018364411396,0.03143063583815029,0.7115871087062853,0.3622522609206473,0.203757225433526,0.6906877336961653,0.2512222998929769,0.1495664739884393
2,single_mlp,9,0.6539086097464187,25395,5536,5496,14217,3056,3039,test,0.6517244270035915,0.190330008458337,0.6858746747347564,0.21299071961823673,0.5912229116310749,0.08098235747991608,0.0638646288209607,0.63831886977432,0.06130494629786958,0.039847161572052404,0.6391124484716497,0.30691551518015975,0.21761280931586607,0.6168607856846461,0.05677041674367657,0.030021834061135372,0.712397330089625,0.3869573288582582,0.2136098981077147,0.7124342163702333,0.2490494861901418,0.14101164483260553
2,sequence_attention,6,0.6954265600857021,22445,4851,4877,14217,3056,3039,val,0.6954265600857021,0.19977844383784438,0.7060695186379156,0.20828502484357528,0.6322089661254544,0.08020862417249729,0.0564831993403422,0.7048035963173083,0.08867193653562001,0.045351473922902494,0.650011034251448,0.29730960606146484,0.2088229231086374,0.7194055323448294,0.06126884801911556,0.032158317872603585,0.7450496031001803,0.4062425646767779,0.1976911976911977,0.7210806283749925,0.2649690835615906,0.14120799835085548
2,sequence_attention,6,0.6954265600857021,22445,4851,4877,14217,3056,3039,test,0.6821710836589262,0.199669538918952,0.7015557717409241,0.2083700467346237,0.6070958636412985,0.08814571300033015,0.06192331351240517,0.667796664528544,0.07292359357576118,0.04100881689563256,0.6560042635705119,0.31931358672958365,0.21591142095550545,0.6900444256399407,0.0638221345136584,0.030756612671724422,0.7389890715835074,0.40077547182669704,0.20729956940742258,0.7330962129897546,0.2530367338676818,0.13327865491080582
2,latest_mlp,8,0.6645714903561326,22445,4851,4877,14217,3056,3039,val,0.6645714903561326,0.1899980389111269,0.6905103693339169,0.21599241660624943,0.6200424528226661,0.07879772297448062,0.0564831993403422,0.6585805147130995,0.07493426611662632,0.045351473922902494,0.629864780264071,0.28898689350204426,0.2088229231086374,0.6378136861363698,0.05101174313945899,0.032158317872603585,0.7303173698193242,0.3840278720734702,0.1976911976911977,0.710810138381265,0.2622297356606811,0.14120799835085548
2,latest_mlp,8,0.6645714903561326,22445,4851,4877,14217,3056,3039,test,0.6576375319184881,0.1880877263255074,0.6853338441750915,0.21034034273236618,0.5984587268845222,0.08217261063517123,0.06192331351240517,0.6434691041265769,0.06686221898670153,0.04100881689563256,0.6429986102667413,0.30518022578067705,0.21591142095550545,0.6306360623369296,0.05172538765385318,0.030756612671724422,0.7186834627683172,0.38369328860214613,0.20729956940742258,0.7115792251278411,0.23889262629449542,0.13327865491080582
4,single_mlp,7,0.5936446144013257,16012,3526,3380,8656,1896,1816,val,0.5936446144013257,0.20700459391241158,0.6230141752205359,0.22332969805886732,0.5239620990008824,0.0807350397561647,0.07317073170731707,0.5613275746901211,0.0866120639149614,0.07005104934770277,0.5954223437109347,0.3343415819090669,0.26063528077141235,0.5894329322638147,0.057616180282458726,0.04537719795802609,0.6568417573425827,0.403887699491001,0.27538287010777085,0.6348809793996182,0.2788349981208168,0.19795802609188884
4,single_mlp,7,0.5936446144013257,16012,3526,3380,8656,1896,1816,test,0.6054239579294195,0.2172487171887715,0.6331921118617313,0.23587956283378,0.5674965280730098,0.10422275273143738,0.08431952662721894,0.6108452532871138,0.08453122118755166,0.058579881656804736,0.6038709875060547,0.341628824761552,0.2701183431952663,0.5533967670698888,0.05789527980603006,0.04082840236686391,0.6524642073694139,0.42938881476577256,0.29142011834319526,0.644470004271036,0.2858254098802854,0.1970414201183432
4,sequence_attention,10,0.6236831076150972,13752,3021,2921,8656,1896,1816,val,0.6236831076150972,0.21610821917869824,0.6661014170162128,0.23606952862262653,0.5809954237123105,0.09057319690092556,0.07282356835484939,0.6013941963011687,0.08740978439928493,0.06752730883813307,0.6069139645482058,0.3348750673068689,0.25521350546176763,0.598488814093313,0.0587250921166472,0.04700430321085733,0.6878092755342564,0.4215496993671598,0.2687851704733532,0.6664969715013289,0.3035164749813029,0.18636213174445548
4,sequence_attention,10,0.6236831076150972,13752,3021,2921,8656,1896,1816,test,0.6155453430363275,0.22009652802850158,0.6666764025990837,0.2446211920781008,0.5521462614020136,0.09983164170495533,0.08079424854501883,0.6004595542817611,0.08204460136964434,0.06059568640876412,0.6182499565684042,0.34599645808035706,0.2697706264977747,0.5743731720475906,0.05737429435888824,0.04313591235878124,0.6757844925400648,0.44038617768230026,0.2872304005477576,0.6722586213781304,0.2949459949748646,0.18794933242040396
4,latest_mlp,12,0.6047517919778146,13752,3021,2921,8656,1896,1816,val,0.6047517919778146,0.2092068783209707,0.647584174330274,0.22725402845276946,0.5547612865535037,0.08562157508669244,0.07282356835484939,0.5712576652954402,0.09338306062456633,0.06752730883813307,0.6023994811932556,0.33025732658617496,0.25521350546176763,0.5672047219055912,0.05217190901596115,0.04700430321085733,0.6757727567697752,0.411476134946528,0.2687851704733532,0.6571148401493222,0.2823312636659012,0.18636213174445548
4,latest_mlp,12,0.6047517919778146,13752,3021,2921,8656,1896,1816,test,0.6046507432364607,0.21559424477722353,0.6503661294993405,0.2374343554981188,0.5520144872644637,0.10100236417490556,0.08079424854501883,0.591957182388694,0.08219348975716208,0.06059568640876412,0.6143274290161137,0.3411873114623497,0.2697706264977747,0.5527515120538377,0.058305170179072593,0.04313591235878124,0.665084342894828,0.4317493629714868,0.2872304005477576,0.6517695058008275,0.27912777011836465,0.18794933242040396
6,single_mlp,7,0.577236765645064,13728,2983,2906,7137,1541,1516,val,0.577236765645064,0.2216664802899397,0.6012077493491857,0.23482722334047926,0.5243173910479448,0.08983774635869814,0.08313778075762655,0.5550153435748197,0.0965009116080281,0.07844451894066376,0.5617673500616361,0.34487230687027404,0.2872946697955079,0.581089539945876,0.06158734201003728,0.05028494803888703,0.6252646202013291,0.43033077167346945,0.31780087160576603,0.6159663490387784,0.3068698032191313,0.21924237344954745
6,single_mlp,7,0.577236765645064,13728,2983,2906,7137,1541,1516,test,0.579529479174615,0.22300823114371357,0.6077324949347385,0.24117631412205212,0.557605421686747,0.09946043672870775,0.08602890571231935,0.579987197831162,0.08940470666515184,0.06744666207845836,0.5629567787949429,0.3353253400851848,0.29559532002752925,0.5238439306358381,0.053168261165784145,0.047487955953200274,0.6253003776175764,0.454113404972714,0.3341362697866483,0.627483168481423,0.3065772372447391,0.2188575361321404
6,sequence_attention,8,0.585178381119012,11662,2537,2481,7137,1541,1516,val,0.585178381119012,0.2228884716824104,0.6146423144704068,0.22575598276487654,0.5349853758232386,0.09971251464941178,0.0843515963736697,0.5536600882943374,0.09188631237990634,0.07843910130074892,0.5654905467748498,0.33646209342154143,0.28182893180922347,0.5732185731435431,0.06442477953446132,0.05360662199448167,0.640833545108005,0.4262473285830313,0.3102089081592432,0.6428821575700977,0.3185978015261101,0.2085139929050059
6,sequence_attention,8,0.585178381119012,11662,2537,2481,7137,1541,1516,test,0.5899507466195194,0.22800791970165432,0.6187168872139226,0.23439208701890915,0.5781030619865573,0.10738906469522595,0.083031035872632,0.5888941204756515,0.09559462402538149,0.06972994760177348,0.5641569079357169,0.3396483021014797,0.2966545747682386,0.5344274596260093,0.05772483358299125,0.051592099959693674,0.6333063161823017,0.4610060200829996,0.3353486497380089,0.6408166135108796,0.3066846737218478,0.21080209592906085
6,latest_mlp,5,0.5746300273173753,11662,2537,2481,7137,1541,1516,val,0.5746300273173753,0.2200522477281266,0.5953060059430298,0.23598851246381217,0.5193031086936406,0.09375589929503514,0.0843515963736697,0.5536278483950978,0.09501351901871058,0.07843910130074892,0.5609861598335804,0.3345418904237868,0.28182893180922347,0.5565083176127594,0.06534028339504774,0.05360662199448167,0.6284389181339626,0.42904308686274756,0.3102089081592432,0.6289158112352105,0.30261880737343183,0.2085139929050059
6,latest_mlp,5,0.5746300273173753,11662,2537,2481,7137,1541,1516,test,0.5807565441034023,0.22783541901235052,0.6004231614212454,0.24700755827586968,0.5572548810412887,0.10045621415814254,0.083031035872632,0.5755815409583154,0.08678451869760577,0.06972994760177348,0.5590051544786346,0.3516839970636564,0.2966545747682386,0.5323672572248194,0.06150081269432281,0.051592099959693674,0.6248305354060735,0.46626970269108564,0.3353486497380089,0.6354998955112819,0.3003172687692901,0.21080209592906085
8,single_mlp,6,0.5780452356855096,13106,2843,2800,6710,1456,1453,val,0.5780452356855096,0.22919491431431938,0.5949738846107636,0.23971585014183452,0.5504328901551123,0.10205698470237103,0.08547309180443194,0.5546651387827859,0.09177961836344417,0.07914175167077031,0.5561671043496634,0.3270941077360483,0.2877242349630672,0.5576338445333235,0.06295719052603088,0.049947238832219486,0.6243698390191008,0.44962682182819835,0.3341540626099191,0.6250025972730711,0.3416547627298237,0.2328526204713331
8,single_mlp,6,0.5780452356855096,13106,2843,2800,6710,1456,1453,test,0.5689119758555671,0.22208186591369247,0.5906697056297093,0.23613839390346772,0.541831401086133,0.09533990051659604,0.08785714285714286,0.5905876751622308,0.0914986760117274,0.07,0.5469736448366214,0.338598955179838,0.29928571428571427,0.5041429296944002,0.05278956979454175,0.04857142857142857,0.6208311298239905,0.4561594799078631,0.3442857142857143,0.6091050745300267,0.2981046140715884,0.22392857142857142
8,sequence_attention,6,0.587994819793895,11084,2405,2390,6710,1456,1453,val,0.587994819793895,0.22856745710219503,0.6061552679277458,0.23986000018897524,0.554193218024579,0.10112782961108854,0.08648648648648649,0.5668634206958879,0.09613002270051807,0.07983367983367984,0.5623187913766763,0.3332169186918045,0.28482328482328484,0.5693660185967878,0.07301369531876453,0.05405405405405406,0.6330240933988287,0.44542636908161115,0.3239085239085239,0.6422033766706102,0.3224899072093831,0.2158004158004158
8,sequence_attention,6,0.587994819793895,11084,2405,2390,6710,1456,1453,test,0.5737162653388316,0.22839358526104866,0.5991399350516471,0.24749498854133475,0.5373528230981355,0.0969091455537884,0.08744769874476988,0.6131634956465656,0.09734989280520451,0.07322175732217573,0.5444858666493543,0.3371960071571253,0.300836820083682,0.49562159964103425,0.05472709642427319,0.052719665271966525,0.6285946435104068,0.46848771193543304,0.3493723849372385,0.6230791634874925,0.3156916576904675,0.21841004184100418
8,latest_mlp,9,0.5744313923822293,11084,2405,2390,6710,1456,1453,val,0.5744313923822293,0.22562809775615403,0.6023040514907778,0.2395020413562399,0.5333573316760618,0.10012875444221331,0.08648648648648649,0.549871027263142,0.09622527072733839,0.07983367983367984,0.5586657613308437,0.3286516208986364,0.28482328482328484,0.5423448858833474,0.06358331167980086,0.05405405405405406,0.6310247312999446,0.43780041357092375,0.3239085239085239,0.6313246168400363,0.32737921521801155,0.2158004158004158
8,latest_mlp,9,0.5744313923822293,11084,2405,2390,6710,1456,1453,test,0.5692250704930574,0.2281086946888752,0.5963534192371825,0.24601001327328298,0.5464713741337213,0.09828623154790371,0.08744769874476988,0.5918787487907127,0.09960087277519449,0.07322175732217573,0.5354617632542038,0.3330635004778323,0.300836820083682,0.5000841325929665,0.058153583015771705,0.052719665271966525,0.6268144097656776,0.473201932770882,0.3493723849372385,0.6146399944210622,0.3063460475456673,0.21841004184100418
10,single_mlp,9,0.5807139713783461,12940,2821,2814,6556,1447,1441,val,0.5807139713783461,0.23165430471754536,0.6097402439787901,0.2530521684556347,0.5603284119785132,0.10471472634771323,0.08543069833392414,0.5719289515961945,0.10154498923664504,0.0804679191775966,0.5452694065044131,0.3115801100720297,0.2889046437433534,0.5630067345477918,0.08366883631212185,0.05459057071960298,0.6278910011968715,0.466422283590179,0.34420418291386035,0.6158593224462924,0.32199488274658344,0.2272243885147111
10,single_mlp,9,0.5807139713783461,12940,2821,2814,6556,1447,1441,test,0.5696612083939413,0.22508879746710134,0.6076038709308939,0.2473651146508507,0.5322525737860109,0.09391449247968324,0.08919687277896234,0.5692036374387822,0.09859040657007989,0.07178393745557925,0.5624732426502426,0.3429990440990148,0.2942430703624733,0.5344363660325968,0.05564317887305621,0.048329779673063254,0.6042218695633161,0.4543556663374345,0.35216773276474767,0.6153795608926995,0.3050299964433392,0.2224591329068941
10,sequence_attention,6,0.595023121153326,10940,2400,2411,6556,1447,1441,val,0.595023121153326,0.2351821416235709,0.595171558479058,0.22936298627879792,0.5828434913050724,0.11146020264623865,0.08541666666666667,0.5747939985710884,0.0963034256963658,0.07916666666666666,0.5600125834202008,0.33541878706267747,0.28791666666666665,0.5790486595776076,0.0818132705879004,0.05875,0.63488702539017,0.4664945480023626,0.3375,0.6385529686558168,0.31960261574588045,0.21
10,sequence_attention,6,0.595023121153326,10940,2400,2411,6556,1447,1441,test,0.5782223814037691,0.23080105093176795,0.5838362091146745,0.22796848997238964,0.5199904309081665,0.09488099815336354,0.08834508502695977,0.6018639494603633,0.10307136867017011,0.0742430526752385,0.5645145115523597,0.34722661638977037,0.29821650767316465,0.5524532178661555,0.06469852652040411,0.052675238490253004,0.6083701931790437,0.4609022898253769,0.35752799668187474,0.6221419854565259,0.3140265060315226,0.21816673579427623
10,latest_mlp,8,0.5805860788153155,10940,2400,2411,6556,1447,1441,val,0.5805860788153155,0.23185193764596848,0.6061562962075806,0.2490949021658678,0.554901938996611,0.09961649932277833,0.08541666666666667,0.5744915456060967,0.09944786041362137,0.07916666666666666,0.554488495824015,0.3325490059420091,0.28791666666666665,0.5506830047815043,0.08879163361174534,0.05875,0.6277141082382173,0.45721227809699366,0.3375,0.6212373794454491,0.3134943484886632,0.21
10,latest_mlp,8,0.5805860788153155,10940,2400,2411,6556,1447,1441,test,0.5721056601670721,0.23024601402533174,0.6045503096632429,0.25449738073469713,0.5320884970117947,0.09674524089191089,0.08834508502695977,0.5898097254760617,0.10386998375615586,0.0742430526752385,0.5628614736122208,0.3488059066413851,0.29821650767316465,0.5242305252561469,0.060032705420317536,0.052675238490253004,0.6060765945846358,0.4602423190478365,0.35752799668187474,0.6175671450615728,0.3117799283943846,0.21816673579427623
12,single_mlp,3,0.5824719155982566,13086,2850,2877,6545,1426,1439,val,0.5824719155982566,0.23429821479954635,0.5946826650211184,0.24984415237588167,0.5688742606585249,0.10180489273967655,0.08456140350877193,0.589817663325268,0.10479357736470502,0.07719298245614035,0.5607330906751151,0.3293080916795624,0.2845614035087719,0.5399298143070133,0.07173889977499975,0.05719298245614035,0.6152345303069843,0.46802433031792773,0.36105263157894735,0.6202421343166347,0.3301194969204067,0.23649122807017545
12,single_mlp,3,0.5824719155982566,13086,2850,2877,6545,1426,1439,test,0.5796823387101885,0.22776222247465425,0.5933204974782553,0.24344859874409075,0.550380342278031,0.10079472995163297,0.08828640945429267,0.592230403572457,0.09357782216571059,0.07334028501911713,0.5649187267862135,0.33958119007723375,0.2895377128953771,0.5533353552320518,0.06660147238739947,0.049009384775808136,0.5958026669832226,0.45508145319667703,0.3660062565172054,0.6214265374091545,0.31093666706927175,0.2273201251303441
12,sequence_attention,5,0.5871745124140024,11147,2443,2486,6545,1426,1439,val,0.5871745124140024,0.23218242148179224,0.6013996907781283,0.24148590309404908,0.5503162998107386,0.10008774070042226,0.08473188702415063,0.6072256866254788,0.10380318311261255,0.07531723291035612,0.5612525288382053,0.3328023197349606,0.2853049529267294,0.5525319437084143,0.0776830423135811,0.06058125255832992,0.6253193892368393,0.4704146123129235,0.35325419566107247,0.6264012262643381,0.3083036307162535,0.21653704461727385
12,sequence_attention,5,0.5871745124140024,11147,2443,2486,6545,1426,1439,test,0.5831949639771378,0.2337598435550061,0.5973868727643826,0.2442548445500052,0.5362543080432989,0.09823474509926704,0.08769106999195495,0.6079639094124399,0.11153191353820051,0.0756234915526951,0.5598614130434783,0.34841381828857304,0.29605792437650846,0.5598726410093299,0.06549633328701429,0.05148833467417538,0.6062136964566077,0.4660045403954562,0.37087691069991957,0.6290038158976714,0.3128777107215254,0.22244569589702334
12,latest_mlp,4,0.5815749944602653,11147,2443,2486,6545,1426,1439,val,0.5815749944602653,0.23512820882194252,0.588392729490328,0.24427086652706384,0.5471090110877775,0.09557602236989764,0.08473188702415063,0.5816600746771369,0.10008717831094177,0.07531723291035612,0.5589989662783226,0.32922263104275307,0.2853049529267294,0.5621356650768415,0.10423509487261973,0.06058125255832992,0.6150714317145078,0.46416100910316127,0.35325419566107247,0.624474817927005,0.31748731723228163,0.21653704461727385
12,latest_mlp,4,0.5815749944602653,11147,2443,2486,6545,1426,1439,test,0.5699408795251779,0.2281531919921317,0.5815188212776675,0.2376419648652332,0.497756985906833,0.08731281647589795,0.08769106999195495,0.6008300464788994,0.1002528885984247,0.0756234915526951,0.5562309782608695,0.34517402520887774,0.29605792437650846,0.5400282946352841,0.06656308832451234,0.05148833467417538,0.6007397323731907,0.4604737728546055,0.37087691069991957,0.624059239495991,0.3091425604904718,0.22244569589702334
